TITLE,R6_C-PFBT_S-F8BT_50_50_50mms_160C_20CB_0_180
DATA TYPE,
ORIGIN,JASCO
OWNER,
DATE,26/05/21
TIME,17:25:40
SPECTROMETER/DATA SYSTEM,
LOCALE,1033
RESOLUTION,
DELTAX,-0.5
XUNITS,NANOMETERS
YUNITS,G Value
Y2UNITS,CD [mdeg]
Y3UNITS,ABSORBANCE
FIRSTX,  700.0000
LASTX,  300.0000
NPOINTS,     801
FIRSTY,    -0.02231
MAXY,     0.09655
MINY,    -0.07499
XYDATA
700.0000,-0.0223077,-25.0956,0.0341109
699.5000,-0.0193986,-24.7595,0.0387009
699.0000,-0.0174521,-25.339,0.0440242
698.5000,-0.0155988,-25.0435,0.0486803
698.0000,-0.0149697,-25.3742,0.051396
697.5000,-0.014702,-25.4481,0.0524843
697.0000,-0.0149399,-25.9668,0.0527013
696.5000,-0.0154282,-26.5321,0.0521441
696.0000,-0.0159346,-26.447,0.0503251
695.5000,-0.0163722,-26.4955,0.0490698
695.0000,-0.0164302,-26.0863,0.0481416
694.5000,-0.0174782,-26.6276,0.046194
694.0000,-0.0183339,-26.6605,0.0440923
693.5000,-0.0193251,-26.5807,0.0417055
693.0000,-0.020833,-26.9114,0.0391683
692.5000,-0.0221668,-27.5734,0.0377169
692.0000,-0.0233295,-27.8273,0.0361672
691.5000,-0.0243849,-27.9099,0.0347046
691.0000,-0.0248607,-27.3472,0.0333541
690.5000,-0.0255977,-27.2633,0.0322943
690.0000,-0.0258474,-27.6397,0.032424
689.5000,-0.0258173,-27.6733,0.0325011
689.0000,-0.025986,-28.154,0.0328512
688.5000,-0.0257853,-28.4713,0.0334798
688.0000,-0.0253215,-28.173,0.0337359
687.5000,-0.0242457,-27.3045,0.0341467
687.0000,-0.0245496,-27.5646,0.0340452
686.5000,-0.0243934,-27.0369,0.0336073
686.0000,-0.0249795,-27.3763,0.0332307
685.5000,-0.0267199,-27.8906,0.0316499
685.0000,-0.0276721,-28.6795,0.0314253
684.5000,-0.0282206,-28.8241,0.0309699
684.0000,-0.0297613,-29.1678,0.0297167
683.5000,-0.0310236,-29.6992,0.0290269
683.0000,-0.032505,-29.0863,0.0271324
682.5000,-0.0342899,-29.5394,0.0261206
682.0000,-0.0353365,-29.593,0.0253931
681.5000,-0.0363836,-29.0298,0.0241929
681.0000,-0.0370077,-28.9879,0.0237506
680.5000,-0.0358128,-28.324,0.0239809
680.0000,-0.0361681,-28.5975,0.0239747
679.5000,-0.0347827,-29.1359,0.0253988
679.0000,-0.0328076,-29.3705,0.0271447
678.5000,-0.0299948,-29.7109,0.0300344
678.0000,-0.0282036,-30.2134,0.0324822
677.5000,-0.0259255,-30.1031,0.0352074
677.0000,-0.0240669,-30.167,0.0380067
676.5000,-0.0230202,-30.3281,0.0399472
676.0000,-0.0221987,-30.37,0.0414826
675.5000,-0.0218928,-30.0424,0.0416086
675.0000,-0.0226919,-30.3994,0.0406203
674.5000,-0.0231362,-30.8421,0.0404205
674.0000,-0.0240831,-31.0556,0.0391001
673.5000,-0.0242457,-31.0897,0.0388804
673.0000,-0.0240266,-31.2678,0.0394597
672.5000,-0.0229484,-30.9152,0.0408478
672.0000,-0.0220951,-30.7825,0.0422432
671.5000,-0.021036,-31.3586,0.0452005
671.0000,-0.0199887,-31.8455,0.0483074
670.5000,-0.0195728,-32.4395,0.050254
670.0000,-0.0192959,-32.5842,0.0512026
669.5000,-0.0190713,-32.4553,0.0516005
669.0000,-0.0196702,-32.6564,0.0503395
668.5000,-0.0201107,-32.153,0.0484779
668.0000,-0.0210431,-32.3635,0.0466333
667.5000,-0.0224592,-32.3347,0.0436539
667.0000,-0.0227924,-31.8357,0.042352
666.5000,-0.0242903,-32.3265,0.0403529
666.0000,-0.0247864,-32.1119,0.0392829
665.5000,-0.0244485,-31.8561,0.0395084
665.0000,-0.0251305,-32.4432,0.0391445
664.5000,-0.0248002,-32.5866,0.0398413
664.0000,-0.0243345,-32.9112,0.0410081
663.5000,-0.0247944,-33.8093,0.0413458
663.0000,-0.0249184,-33.9626,0.0413266
662.5000,-0.0254182,-34.1312,0.0407151
662.0000,-0.0259756,-34.7551,0.0405698
661.5000,-0.0253849,-34.3696,0.0410533
661.0000,-0.0248416,-34.0591,0.0415722
660.5000,-0.0247813,-34.161,0.041798
660.0000,-0.0247477,-33.892,0.0415253
659.5000,-0.0255997,-34.6681,0.0410625
659.0000,-0.0259204,-34.8191,0.0407311
658.5000,-0.0259854,-35.1675,0.0410357
658.0000,-0.025993,-35.6996,0.0416444
657.5000,-0.0252379,-35.4937,0.0426429
657.0000,-0.0245328,-34.8398,0.0430603
656.5000,-0.0237041,-34.4695,0.0440921
656.0000,-0.0240854,-34.66,0.0436339
655.5000,-0.0245886,-34.8915,0.0430264
655.0000,-0.0249864,-35.9206,0.0435902
654.5000,-0.0253827,-36.9307,0.0441163
654.0000,-0.0253226,-37.2545,0.0446087
653.5000,-0.0246053,-37.7691,0.0465432
653.0000,-0.0244868,-37.6647,0.0466394
652.5000,-0.025316,-37.6176,0.0450553
652.0000,-0.0249931,-37.4025,0.0453764
651.5000,-0.0253715,-37.5013,0.0448177
651.0000,-0.0253889,-36.9406,0.0441174
650.5000,-0.0244104,-37.2212,0.0462344
650.0000,-0.0248061,-37.0919,0.0453389
649.5000,-0.0249413,-37.0012,0.0449827
649.0000,-0.0254764,-37.6773,0.0448426
648.5000,-0.0255525,-37.5248,0.0445281
648.0000,-0.0268831,-38.0245,0.0428877
647.5000,-0.0269058,-37.9425,0.0427592
647.0000,-0.0273095,-38.3442,0.0425731
646.5000,-0.0279754,-38.8045,0.0420585
646.0000,-0.0275173,-39.3284,0.0433362
645.5000,-0.0284207,-40.0578,0.0427368
645.0000,-0.0285582,-40.1235,0.0426007
644.5000,-0.0290278,-40.2352,0.0420283
644.0000,-0.0295879,-40.2692,0.0412675
643.5000,-0.0299557,-40.1112,0.040601
643.0000,-0.0310609,-40.4042,0.0394423
642.5000,-0.0315642,-40.8018,0.0391953
642.0000,-0.0323204,-40.8273,0.0383022
641.5000,-0.0324384,-41.3561,0.0386571
641.0000,-0.0321122,-41.5841,0.0392652
640.5000,-0.0314865,-41.5966,0.0400574
640.0000,-0.0306062,-41.8645,0.0414749
639.5000,-0.0296036,-41.6112,0.0426201
639.0000,-0.0283809,-41.4881,0.0443249
638.5000,-0.0281169,-41.8275,0.045107
638.0000,-0.0275433,-42.1658,0.0464187
637.5000,-0.0266592,-41.8713,0.0476233
637.0000,-0.0265911,-42.3681,0.0483117
636.5000,-0.0261081,-42.1153,0.0489118
636.0000,-0.0255608,-42.1616,0.050014
635.5000,-0.0260353,-42.6721,0.049697
635.0000,-0.0262174,-43.246,0.0500157
634.5000,-0.0267891,-43.5549,0.0492979
634.0000,-0.0269712,-43.8043,0.0492453
633.5000,-0.0266578,-43.43,0.0493985
633.0000,-0.0272724,-43.9676,0.0488831
632.5000,-0.0277821,-44.3183,0.0483691
632.0000,-0.0287672,-44.5801,0.0469887
631.5000,-0.0300312,-45.1801,0.0456166
631.0000,-0.0303748,-44.7334,0.0446548
630.5000,-0.0311915,-44.9466,0.0436928
630.0000,-0.0307534,-44.7018,0.0440738
629.5000,-0.0314045,-44.7251,0.0431827
629.0000,-0.0320515,-45.4228,0.0429709
628.5000,-0.0321265,-46.0706,0.0434821
628.0000,-0.0327914,-46.8303,0.0433028
627.5000,-0.0329597,-47.3393,0.04355
627.0000,-0.032426,-47.1908,0.044128
626.5000,-0.0317876,-47.5659,0.0453719
626.0000,-0.0319216,-47.4275,0.04505
625.5000,-0.031046,-47.637,0.0465252
625.0000,-0.0313561,-47.8289,0.0462506
624.5000,-0.0309662,-47.5945,0.0466034
624.0000,-0.0309949,-48.0589,0.0470147
623.5000,-0.0313488,-48.2124,0.0466323
623.0000,-0.0312171,-48.4426,0.0470527
622.5000,-0.0316064,-49.2311,0.0472295
622.0000,-0.0316718,-49.8077,0.0476841
621.5000,-0.0312848,-50.0374,0.0484966
621.0000,-0.0320349,-50.3385,0.047646
620.5000,-0.0315329,-50.1022,0.0481773
620.0000,-0.0314255,-49.9281,0.0481739
619.5000,-0.0323271,-50.6205,0.0474797
619.0000,-0.0326403,-51.2021,0.0475645
618.5000,-0.033352,-51.2659,0.0466075
618.0000,-0.0338645,-51.3355,0.0459645
617.5000,-0.0333612,-50.8856,0.046249
617.0000,-0.0333183,-51.1192,0.0465211
616.5000,-0.0334279,-51.9314,0.0471053
616.0000,-0.0334727,-52.2243,0.0473076
615.5000,-0.0338324,-52.7498,0.0472756
615.0000,-0.0337728,-52.9984,0.0475822
614.5000,-0.0331354,-52.6864,0.0482121
614.0000,-0.0328933,-53.1551,0.048999
613.5000,-0.033524,-53.3024,0.0482103
613.0000,-0.0336998,-54.0112,0.0485966
612.5000,-0.0343847,-54.5724,0.0481235
612.0000,-0.0351452,-54.9354,0.0473954
611.5000,-0.03559,-55.4035,0.0472018
611.0000,-0.0354819,-55.9007,0.0477706
610.5000,-0.0354615,-55.8288,0.0477364
610.0000,-0.0344148,-56.0003,0.0493396
609.5000,-0.0335916,-55.8558,0.0504181
609.0000,-0.0333856,-56.1747,0.0510189
608.5000,-0.0334905,-56.6329,0.0512739
608.0000,-0.0337162,-56.8014,0.0510823
607.5000,-0.0336517,-57.2309,0.051567
607.0000,-0.0337317,-57.0062,0.0512428
606.5000,-0.0338493,-57.658,0.0516486
606.0000,-0.0344253,-58.1916,0.0512544
605.5000,-0.0343059,-58.5117,0.0517159
605.0000,-0.0344925,-59.2689,0.0521016
604.5000,-0.034641,-59.4459,0.0520333
604.0000,-0.0342809,-59.3699,0.0525126
603.5000,-0.0349465,-59.8125,0.0518964
603.0000,-0.0345735,-60.0157,0.0526345
602.5000,-0.0350047,-60.6043,0.0524961
602.0000,-0.0350528,-61.0798,0.0528353
601.5000,-0.0349518,-61.436,0.0532971
601.0000,-0.0362267,-61.871,0.0517855
600.5000,-0.0365682,-61.9933,0.0514033
600.0000,-0.0370174,-62.4996,0.0511942
599.5000,-0.0372279,-63.032,0.0513383
599.0000,-0.0373189,-63.2978,0.0514291
598.5000,-0.0370757,-63.4637,0.0519021
598.0000,-0.0374475,-63.5977,0.0514954
597.5000,-0.0378546,-63.7573,0.0510694
597.0000,-0.0374598,-64.3295,0.0520708
596.5000,-0.0373353,-64.706,0.0525503
596.0000,-0.0374687,-65.1815,0.0527478
595.5000,-0.0372857,-65.5848,0.0533348
595.0000,-0.0379544,-65.8182,0.0525815
594.5000,-0.0385955,-66.0673,0.0519038
594.0000,-0.0385028,-66.6108,0.0524568
593.5000,-0.0388011,-67.1825,0.0525003
593.0000,-0.0393272,-67.6642,0.0521694
592.5000,-0.0399524,-68.2454,0.0517941
592.0000,-0.0407126,-68.5721,0.0510702
591.5000,-0.0413879,-68.923,0.0504941
591.0000,-0.0409011,-69.3022,0.0513761
590.5000,-0.0409836,-69.8054,0.051645
590.0000,-0.0406766,-70.2791,0.0523879
589.5000,-0.0402159,-70.9808,0.0535171
589.0000,-0.0405328,-71.2973,0.0533354
588.5000,-0.0406919,-71.6811,0.0534128
588.0000,-0.0410509,-71.8655,0.0530819
587.5000,-0.0417849,-72.3324,0.0524883
587.0000,-0.041968,-72.8926,0.0526642
586.5000,-0.0421343,-73.2383,0.052705
586.0000,-0.0416471,-73.4017,0.0534406
585.5000,-0.0419551,-73.7915,0.0533299
585.0000,-0.0418055,-74.0935,0.0537398
584.5000,-0.0418953,-74.7721,0.0541157
584.0000,-0.0424502,-75.8263,0.0541614
583.5000,-0.0424959,-76.4804,0.0545699
583.0000,-0.0426028,-76.7741,0.054642
582.5000,-0.0430016,-77.3419,0.0545355
582.0000,-0.0430996,-77.6868,0.0546543
581.5000,-0.0438533,-78.0169,0.053943
581.0000,-0.043206,-78.2332,0.0549031
580.5000,-0.0426769,-78.7593,0.0559575
580.0000,-0.0425539,-79.0612,0.0563343
579.5000,-0.0418802,-79.4555,0.0575261
579.0000,-0.0425944,-80.27,0.0571413
578.5000,-0.0430425,-80.5795,0.0567644
578.0000,-0.0436528,-81.2321,0.0564241
577.5000,-0.0431639,-81.5986,0.0573206
577.0000,-0.0426011,-82.1154,0.0584458
576.5000,-0.0428082,-82.7113,0.0585851
576.0000,-0.042528,-82.9522,0.0591428
575.5000,-0.0434195,-84.2117,0.0588082
575.0000,-0.0444205,-85.0705,0.058069
574.5000,-0.0450079,-85.3907,0.0575269
574.0000,-0.0454864,-86.4039,0.0575972
573.5000,-0.0458002,-87.0837,0.0576526
573.0000,-0.0461023,-87.551,0.0575821
572.5000,-0.0465962,-88.5936,0.0576502
572.0000,-0.0468432,-89.1768,0.0577238
571.5000,-0.0470045,-89.6288,0.0578172
571.0000,-0.0472971,-90.3188,0.057902
570.5000,-0.0468731,-90.3867,0.0584697
570.0000,-0.0465456,-90.9438,0.059244
569.5000,-0.0462575,-91.1671,0.0597593
569.0000,-0.0472508,-91.7703,0.0588901
568.5000,-0.0476204,-92.6128,0.0589695
568.0000,-0.0489726,-93.1773,0.0576908
567.5000,-0.0500921,-94.2901,0.0570751
567.0000,-0.0502135,-95.2204,0.0574989
566.5000,-0.0504316,-95.7704,0.0575808
566.0000,-0.0496376,-96.6984,0.0590688
565.5000,-0.0493679,-97.2798,0.0597485
565.0000,-0.048432,-98.1472,0.0614461
564.5000,-0.0492702,-98.905,0.0608672
564.0000,-0.0500044,-99.4787,0.0603214
563.5000,-0.0504737,-100.378,0.0603005
563.0000,-0.0514184,-101.024,0.0595739
562.5000,-0.0511148,-101.466,0.0601901
562.0000,-0.0512167,-102.269,0.0605455
561.5000,-0.0519357,-102.976,0.0601199
561.0000,-0.0518283,-104.066,0.0608821
560.5000,-0.0526232,-105.422,0.0607439
560.0000,-0.0526177,-106.629,0.0614459
559.5000,-0.0528388,-107.531,0.0617065
559.0000,-0.0536807,-108.074,0.0610454
558.5000,-0.0540406,-108.849,0.0610739
558.0000,-0.0548111,-109.519,0.0605857
557.5000,-0.0548834,-110.345,0.060962
557.0000,-0.0555959,-111.287,0.0606948
556.5000,-0.0557498,-112.039,0.0609363
556.0000,-0.0555798,-112.705,0.0614861
555.5000,-0.0551019,-113.492,0.0624523
555.0000,-0.0547176,-114.272,0.063323
554.5000,-0.0552954,-115.354,0.0632546
554.0000,-0.0556587,-116.65,0.0635479
553.5000,-0.0571301,-118.143,0.0627038
553.0000,-0.0579813,-119.46,0.0624717
552.5000,-0.057909,-120.004,0.0628349
552.0000,-0.0580112,-121.043,0.0632671
551.5000,-0.058541,-121.99,0.0631851
551.0000,-0.0580729,-122.756,0.0640944
550.5000,-0.0580505,-123.836,0.064683
550.0000,-0.0581441,-125.115,0.065246
549.5000,-0.0582499,-126.341,0.0657657
549.0000,-0.0583494,-127.681,0.06635
548.5000,-0.0582442,-128.926,0.0671178
548.0000,-0.0585516,-130.187,0.0674187
547.5000,-0.0587249,-131.301,0.0677948
547.0000,-0.0594434,-132.349,0.0675097
546.5000,-0.0600111,-133.629,0.0675175
546.0000,-0.0609371,-134.832,0.0670906
545.5000,-0.0611345,-136.286,0.0675949
545.0000,-0.0610175,-137.557,0.0683561
544.5000,-0.061666,-138.585,0.0681426
544.0000,-0.061375,-139.931,0.0691307
543.5000,-0.0623382,-141.065,0.0686144
543.0000,-0.0631567,-142.373,0.0683531
542.5000,-0.063968,-144.152,0.0683293
542.0000,-0.0646444,-145.947,0.0684565
541.5000,-0.065483,-147.556,0.0683248
541.0000,-0.0649443,-149.345,0.0697268
540.5000,-0.064681,-150.817,0.0707004
540.0000,-0.0653257,-152.523,0.0707945
539.5000,-0.0661147,-153.977,0.0706165
539.0000,-0.0669047,-155.517,0.0704806
538.5000,-0.0670222,-157.535,0.0712699
538.0000,-0.0672923,-158.979,0.0716346
537.5000,-0.0676189,-160.741,0.0720789
537.0000,-0.0681685,-162.281,0.072183
536.5000,-0.0683573,-163.336,0.0724514
536.0000,-0.0692196,-165.289,0.0724041
535.5000,-0.0683744,-167.367,0.0742209
535.0000,-0.0685354,-169.288,0.0748964
534.5000,-0.0696829,-171.482,0.0746175
534.0000,-0.0696091,-173.125,0.0754124
533.5000,-0.0712002,-174.964,0.0745105
533.0000,-0.0714036,-176.915,0.0751264
532.5000,-0.0715704,-178.868,0.075779
532.0000,-0.0716205,-180.99,0.0766243
531.5000,-0.0708857,-183.317,0.078414
531.0000,-0.0715595,-185.533,0.0786145
530.5000,-0.0717459,-187.658,0.0793085
530.0000,-0.0722801,-189.995,0.0797027
529.5000,-0.0733133,-192.042,0.079426
529.0000,-0.0725688,-194.023,0.0810687
528.5000,-0.0719109,-195.743,0.0825355
528.0000,-0.0712564,-197.869,0.0841981
527.5000,-0.0710853,-199.922,0.0852765
527.0000,-0.0720264,-202.541,0.0852651
526.5000,-0.0730064,-205.173,0.0852138
526.0000,-0.0739209,-207.348,0.0850515
525.5000,-0.0745942,-209.562,0.0851838
525.0000,-0.0748662,-211.472,0.0856479
524.5000,-0.0749885,-213.871,0.0864781
524.0000,-0.0746007,-215.928,0.0877639
523.5000,-0.0741515,-218.003,0.0891441
523.0000,-0.0736018,-220.026,0.0906431
522.5000,-0.072636,-221.775,0.0925784
522.0000,-0.0722786,-223.806,0.0938882
521.5000,-0.0722424,-225.972,0.0948442
521.0000,-0.072815,-227.747,0.0948379
520.5000,-0.073583,-229.347,0.094507
520.0000,-0.0736205,-230.89,0.0950946
519.5000,-0.0727637,-232.125,0.0967291
519.0000,-0.0721378,-233.29,0.0980578
518.5000,-0.0714111,-234.823,0.0997066
518.0000,-0.0709015,-235.964,0.100911
517.5000,-0.0712492,-237.078,0.100893
517.0000,-0.0697729,-238.124,0.103482
516.5000,-0.0692206,-238.596,0.104515
516.0000,-0.0683455,-239.265,0.10615
515.5000,-0.0676308,-239.292,0.107284
515.0000,-0.0673605,-239.302,0.107718
514.5000,-0.0662231,-239.044,0.10945
514.0000,-0.0648448,-238.003,0.11129
513.5000,-0.0635207,-237.097,0.113178
513.0000,-0.0619266,-235.798,0.115455
512.5000,-0.0604516,-233.918,0.117329
512.0000,-0.0589117,-231.921,0.119368
511.5000,-0.0577038,-229.5,0.120594
511.0000,-0.0561381,-226.584,0.122383
510.5000,-0.0548652,-223.22,0.123363
510.0000,-0.0530981,-219.407,0.125291
509.5000,-0.0510655,-214.825,0.127558
509.0000,-0.0490032,-210.257,0.1301
508.5000,-0.0467674,-204.914,0.132855
508.0000,-0.0449137,-199.109,0.13442
507.5000,-0.0426947,-192.935,0.137021
507.0000,-0.0405393,-185.173,0.1385
506.5000,-0.0384101,-177.685,0.140267
506.0000,-0.0362207,-169.331,0.141752
505.5000,-0.0336601,-160.064,0.144188
505.0000,-0.0312738,-150.552,0.145967
504.5000,-0.0285053,-139.819,0.148728
504.0000,-0.0256869,-128.393,0.151558
503.5000,-0.022851,-116.146,0.154116
503.0000,-0.0201097,-103.611,0.156224
502.5000,-0.0172793,-90.3361,0.15852
502.0000,-0.0143827,-76.2902,0.160834
501.5000,-0.0112544,-60.4508,0.162866
501.0000,-0.00819254,-44.979,0.166472
500.5000,-0.00519844,-29,0.169151
500.0000,-0.00220829,-12.4811,0.171375
499.5000,0.000741305,4.25569,0.174069
499.0000,0.00377353,21.782,0.175025
498.5000,0.00686407,40.1364,0.177299
498.0000,0.00992295,58.99,0.180255
497.5000,0.0128225,77.8229,0.184028
497.0000,0.0159171,98.5007,0.18764
496.5000,0.019061,119.913,0.190752
496.0000,0.0221321,140.798,0.192896
495.5000,0.0253303,163.096,0.195233
495.0000,0.0283656,184.643,0.197374
494.5000,0.0315857,207.396,0.199095
494.0000,0.0347269,229.256,0.200172
493.5000,0.0379164,252.753,0.202124
493.0000,0.0408458,275.29,0.204358
492.5000,0.0436353,299.456,0.208087
492.0000,0.0464035,323.844,0.211609
491.5000,0.0496499,348.175,0.212632
491.0000,0.0526792,372.797,0.214577
490.5000,0.0558253,397.905,0.216121
490.0000,0.0585816,421.411,0.218119
489.5000,0.0608912,444.24,0.221214
489.0000,0.0628831,466.207,0.224799
488.5000,0.0649499,487.607,0.227636
488.0000,0.066652,508.193,0.231187
487.5000,0.068079,528.654,0.235455
487.0000,0.0695383,548.603,0.239212
486.5000,0.0711077,567.522,0.242
486.0000,0.0727936,587.617,0.244766
485.5000,0.0749991,607.846,0.245746
485.0000,0.0768122,627.518,0.247711
484.5000,0.0790761,647.953,0.248455
484.0000,0.0813215,668.128,0.249117
483.5000,0.0834268,687.455,0.249855
483.0000,0.0852155,705.482,0.251025
482.5000,0.0870124,722.531,0.251782
482.0000,0.0882416,739.808,0.254211
481.5000,0.0891053,755.225,0.256993
481.0000,0.0903945,770.715,0.258524
480.5000,0.0913378,784.182,0.260325
480.0000,0.0924418,797.305,0.26152
479.5000,0.0935662,809.12,0.262206
479.0000,0.0937037,819.413,0.265152
478.5000,0.0937538,829.19,0.268173
478.0000,0.0936321,837.308,0.27115
477.5000,0.0929131,845.033,0.275769
477.0000,0.0933098,851.784,0.276791
476.5000,0.0932213,858.358,0.279192
476.0000,0.0929958,864.419,0.281845
475.5000,0.0933066,870.045,0.282735
475.0000,0.0933125,875.489,0.284486
474.5000,0.0936816,880.453,0.284971
474.0000,0.0939862,884.905,0.285484
473.5000,0.0945719,889.503,0.28519
473.0000,0.0954882,892.907,0.283534
472.5000,0.095851,895.716,0.28335
472.0000,0.0963236,897.547,0.282536
471.5000,0.096549,898.028,0.282028
471.0000,0.0963163,898.144,0.282745
470.5000,0.096129,897.56,0.283112
470.0000,0.0957682,895.943,0.283667
469.5000,0.0948159,893.801,0.285831
469.0000,0.0944462,891.313,0.286151
468.5000,0.0936878,888.399,0.287524
468.0000,0.09312,885.387,0.288297
467.5000,0.0926868,881.884,0.288498
467.0000,0.0920209,877.779,0.289233
466.5000,0.091266,873.336,0.290149
466.0000,0.0902358,868.339,0.291783
465.5000,0.0892599,863.027,0.293168
465.0000,0.087885,857.065,0.295698
464.5000,0.0869165,850.815,0.296813
464.0000,0.0855657,843.648,0.298959
463.5000,0.0844792,836.719,0.300317
463.0000,0.0834997,829.611,0.301258
462.5000,0.0824507,822.005,0.302294
462.0000,0.0815947,814.481,0.302669
461.5000,0.0809195,806.021,0.302025
461.0000,0.0803127,797.945,0.301257
460.5000,0.0799197,789.466,0.299522
460.0000,0.0793785,780.771,0.298243
459.5000,0.0785819,772.019,0.297889
459.0000,0.0774976,763.136,0.298581
458.5000,0.0763828,753.719,0.299201
458.0000,0.0751509,744.143,0.300242
457.5000,0.0743322,733.934,0.299384
457.0000,0.0736288,724.065,0.298181
456.5000,0.072949,713.872,0.296722
456.0000,0.0719153,703.624,0.296667
455.5000,0.0708415,693.18,0.296693
455.0000,0.0695926,682.49,0.29736
454.5000,0.0683072,671.578,0.298112
454.0000,0.0674595,660.88,0.29705
453.5000,0.0666666,650.685,0.295946
453.0000,0.0661557,639.55,0.293128
452.5000,0.0653003,628.572,0.29187
452.0000,0.064543,617.185,0.289945
451.5000,0.0632619,605.067,0.290008
451.0000,0.0621374,593.767,0.289743
450.5000,0.0612016,582.25,0.288467
450.0000,0.0602217,570.807,0.287399
449.5000,0.059133,559.399,0.286841
449.0000,0.0580804,548.067,0.286123
448.5000,0.0569534,536.978,0.285882
448.0000,0.0558049,525.979,0.285789
447.5000,0.0545158,514.878,0.286373
447.0000,0.0530466,503.515,0.287809
446.5000,0.0518563,492.836,0.288171
446.0000,0.0505757,481.492,0.288666
445.5000,0.0496255,470.24,0.287318
445.0000,0.0486883,458.443,0.285503
444.5000,0.0476068,446.476,0.284367
444.0000,0.046751,434.672,0.281916
443.5000,0.0456829,422.481,0.280416
443.0000,0.0446106,410.572,0.279062
442.5000,0.0436354,399.196,0.277394
442.0000,0.0424952,387.888,0.276768
441.5000,0.0415083,376.986,0.275385
441.0000,0.0405337,366.524,0.274179
440.5000,0.0393973,355.497,0.273602
440.0000,0.0382946,344.447,0.272731
439.5000,0.0371491,333.67,0.272344
439.0000,0.0361195,322.884,0.271053
438.5000,0.0351671,312.133,0.269124
438.0000,0.0343849,301.692,0.266039
437.5000,0.0336182,291.579,0.262985
437.0000,0.0324797,281.472,0.262769
436.5000,0.0314797,271.699,0.261702
436.0000,0.0302803,262.178,0.262533
435.5000,0.0290897,252.531,0.263224
435.0000,0.0282861,242.986,0.26047
434.5000,0.0273818,233.686,0.258774
434.0000,0.0264344,224.271,0.257248
433.5000,0.0256089,215.35,0.254978
433.0000,0.0245818,206.528,0.25475
432.5000,0.023748,197.69,0.252411
432.0000,0.0229433,189.023,0.249809
431.5000,0.021969,180.459,0.249068
431.0000,0.0210307,171.935,0.247891
430.5000,0.0201391,163.963,0.246863
430.0000,0.019215,155.791,0.245838
429.5000,0.0184072,148.026,0.243837
429.0000,0.0175139,140.011,0.242398
428.5000,0.0166748,132.528,0.240989
428.0000,0.015897,125.426,0.239234
427.5000,0.015045,118.334,0.238489
427.0000,0.0142843,111.408,0.236486
426.5000,0.0134492,104.608,0.23584
426.0000,0.0127037,98.2215,0.234438
425.5000,0.0120492,92.056,0.231655
425.0000,0.0113887,85.9647,0.228873
424.5000,0.0107424,80.1136,0.226128
424.0000,0.00995424,73.8723,0.225021
423.5000,0.00926933,68.3236,0.223497
423.0000,0.00854307,62.9762,0.223517
422.5000,0.00785696,57.6038,0.222303
422.0000,0.00725539,52.661,0.220078
421.5000,0.0066173,47.7029,0.218582
421.0000,0.00599207,42.7837,0.216496
420.5000,0.0053804,38.1757,0.21514
420.0000,0.00476541,33.6664,0.214213
419.5000,0.00414373,29.0804,0.212793
419.0000,0.00356218,24.8394,0.211434
418.5000,0.00301572,20.8957,0.210095
418.0000,0.00247552,17.01,0.208347
417.5000,0.00194703,13.2684,0.20663
417.0000,0.00144073,9.7552,0.205306
416.5000,0.000920301,6.1732,0.20339
416.0000,0.000444872,2.95112,0.201141
415.5000,-1.49642E-005,-0.0982878,0.199157
415.0000,-0.000490259,-3.1915,0.197387
414.5000,-0.000945268,-6.12724,0.196544
414.0000,-0.00139649,-8.96257,0.194601
413.5000,-0.00181817,-11.6012,0.193472
413.0000,-0.00222656,-13.9591,0.190095
412.5000,-0.00260046,-16.0514,0.18716
412.0000,-0.002973,-18.2003,0.185624
411.5000,-0.00338591,-20.4975,0.183559
411.0000,-0.00375334,-22.544,0.182122
410.5000,-0.00416013,-24.7646,0.180498
410.0000,-0.00449644,-26.5358,0.178942
409.5000,-0.00482416,-28.251,0.177567
409.0000,-0.00508676,-29.6326,0.176636
408.5000,-0.00534816,-31.0107,0.175815
408.0000,-0.00561798,-32.4067,0.174906
407.5000,-0.00591236,-33.8732,0.173718
407.0000,-0.00617456,-34.9632,0.171694
406.5000,-0.0064363,-36.0151,0.169667
406.0000,-0.00668874,-37.0365,0.167894
405.5000,-0.00691073,-37.8368,0.166012
405.0000,-0.00710429,-38.8111,0.165648
404.5000,-0.00729698,-39.4424,0.163896
404.0000,-0.00748425,-39.8071,0.161273
403.5000,-0.007644,-40.1863,0.159407
403.0000,-0.00781414,-40.5378,0.1573
402.5000,-0.00790593,-40.971,0.157135
402.0000,-0.00798391,-41.3036,0.156863
401.5000,-0.00821905,-41.7596,0.154058
401.0000,-0.00835152,-42.0208,0.152563
400.5000,-0.0084895,-42.0279,0.150109
400.0000,-0.00871519,-42.2299,0.146924
399.5000,-0.00873985,-41.9881,0.145671
399.0000,-0.00874803,-41.6946,0.144517
398.5000,-0.00876065,-41.5571,0.143833
398.0000,-0.00875677,-41.3157,0.143061
397.5000,-0.00873258,-40.9157,0.142068
397.0000,-0.00874468,-40.5695,0.140671
396.5000,-0.008766,-40.0663,0.138588
396.0000,-0.00870044,-39.5679,0.137896
395.5000,-0.00863229,-38.8699,0.136533
395.0000,-0.00869216,-38.4331,0.134068
394.5000,-0.00858467,-37.9158,0.13392
394.0000,-0.00854557,-37.2429,0.132146
393.5000,-0.00841907,-36.5727,0.131717
393.0000,-0.00832887,-35.7843,0.130273
392.5000,-0.00834586,-35.1954,0.127868
392.0000,-0.00813878,-34.1948,0.127394
391.5000,-0.00805883,-33.3039,0.125306
391.0000,-0.00784285,-32.1277,0.12421
390.5000,-0.00766763,-30.9356,0.122334
390.0000,-0.00740143,-29.7021,0.121681
389.5000,-0.00722367,-28.4533,0.119433
389.0000,-0.00700176,-27.167,0.117648
388.5000,-0.00674138,-25.9529,0.116731
388.0000,-0.00659345,-24.8574,0.114312
387.5000,-0.00629889,-23.5036,0.113141
387.0000,-0.00600684,-22.3419,0.112778
386.5000,-0.00568538,-21.0493,0.112261
386.0000,-0.00533555,-19.5331,0.111005
385.5000,-0.00499757,-18.1542,0.110145
385.0000,-0.00474499,-16.7924,0.107307
384.5000,-0.00440694,-15.3219,0.105421
384.0000,-0.00407148,-13.9577,0.103947
383.5000,-0.00375273,-12.6629,0.102314
383.0000,-0.00334422,-11.2749,0.102227
382.5000,-0.00294222,-9.82684,0.101272
382.0000,-0.00249912,-8.28208,0.100485
381.5000,-0.00203536,-6.67704,0.0994698
381.0000,-0.00160954,-5.21989,0.0983349
380.5000,-0.00110456,-3.56625,0.0978979
380.0000,-0.000654117,-2.0806,0.0964457
379.5000,-0.000136736,-0.429148,0.0951643
379.0000,0.000336519,1.04322,0.093997
378.5000,0.000781795,2.40016,0.0930887
378.0000,0.00137474,4.1762,0.092111
377.5000,0.0018931,5.74321,0.0919877
377.0000,0.00243824,7.30531,0.0908473
376.5000,0.00298444,8.84141,0.0898273
376.0000,0.00351535,10.2984,0.0888285
375.5000,0.00399498,11.6122,0.088135
375.0000,0.00462061,13.3905,0.0878714
374.5000,0.0052812,15.157,0.0870223
374.0000,0.00589761,17.0123,0.0874654
373.5000,0.00653467,18.7151,0.0868396
373.0000,0.0071322,20.2625,0.0861428
372.5000,0.00770608,21.7662,0.0856445
372.0000,0.00827713,23.2108,0.0850277
371.5000,0.00888393,24.7686,0.0845368
371.0000,0.00935508,26.4714,0.0857982
370.5000,0.00988312,28.0093,0.0859326
370.0000,0.010309,29.5094,0.0867948
369.5000,0.0108602,31.2184,0.0871608
369.0000,0.0114774,32.8475,0.0867774
368.5000,0.0119985,34.6146,0.0874747
368.0000,0.0126106,36.39,0.0874977
367.5000,0.0133975,38.4696,0.087065
367.0000,0.0139155,40.2307,0.0876612
366.5000,0.0144332,41.979,0.0881897
366.0000,0.015173,44.2175,0.0883636
365.5000,0.0157266,46.2045,0.0890836
365.0000,0.0167141,48.7322,0.0884062
364.5000,0.0173664,51.1539,0.0893138
364.0000,0.0179401,53.9076,0.0911117
363.5000,0.0187644,57.0454,0.0921798
363.0000,0.0194475,60.3162,0.0940417
362.5000,0.0204918,64.0481,0.0947711
362.0000,0.0216139,68.0157,0.0954167
361.5000,0.0226101,72.5787,0.0973321
361.0000,0.0237111,77.405,0.0989845
360.5000,0.0245891,82.5918,0.101846
360.0000,0.0258609,88.926,0.104264
359.5000,0.0271239,95.2246,0.10645
359.0000,0.0287526,102.682,0.108284
358.5000,0.0303206,110.889,0.110891
358.0000,0.032055,119.88,0.113397
357.5000,0.0335707,129.938,0.117362
357.0000,0.0355226,140.723,0.120118
356.5000,0.0372926,152.31,0.123838
356.0000,0.0390657,164.797,0.12791
355.5000,0.0409408,178.274,0.132033
355.0000,0.0426943,192.677,0.136839
354.5000,0.0452094,209.205,0.140311
354.0000,0.0473814,224.879,0.143909
353.5000,0.0496459,242.373,0.14803
353.0000,0.0518349,260.799,0.152557
352.5000,0.0540952,279.856,0.156865
352.0000,0.0559886,299.533,0.162216
351.5000,0.057769,319.487,0.16769
351.0000,0.0598448,340.597,0.172569
350.5000,0.06148,360.769,0.177928
350.0000,0.0630797,380.539,0.182919
349.5000,0.0643442,399.262,0.188147
349.0000,0.0655345,418.269,0.193524
348.5000,0.0668245,436.39,0.19801
348.0000,0.0678926,453.404,0.202494
347.5000,0.068583,468.922,0.207316
347.0000,0.0692457,483.09,0.211536
346.5000,0.0687788,495.559,0.218469
346.0000,0.0685261,505.968,0.223881
345.5000,0.0680791,514.109,0.228977
345.0000,0.0675083,520.101,0.233604
344.5000,0.0668624,523.303,0.237312
344.0000,0.0661016,523.897,0.240316
343.5000,0.0648395,522.384,0.244287
343.0000,0.0633533,518.478,0.248148
342.5000,0.061662,512.359,0.251945
342.0000,0.059972,503.822,0.254729
341.5000,0.0577881,493.021,0.258688
341.0000,0.0556329,480.214,0.261729
340.5000,0.0532679,465.526,0.264989
340.0000,0.0509183,449.401,0.267614
339.5000,0.0485505,431.104,0.269238
339.0000,0.045956,411.202,0.271308
338.5000,0.0433207,390.047,0.273005
338.0000,0.0406565,369.135,0.275299
337.5000,0.0377451,346.006,0.277953
337.0000,0.0350304,322.331,0.279001
336.5000,0.032145,298.081,0.281171
336.0000,0.0294623,273.306,0.281276
335.5000,0.0265868,247.068,0.281773
335.0000,0.0238472,222.159,0.282472
334.5000,0.0210572,197.143,0.283878
334.0000,0.0183409,172.288,0.284829
333.5000,0.0157252,147.902,0.285184
333.0000,0.0131311,123.677,0.285586
332.5000,0.0106975,101.246,0.286974
332.0000,0.00826767,78.3746,0.287436
331.5000,0.00583215,55.6354,0.289249
331.0000,0.00353477,34.0881,0.292409
330.5000,0.00125396,12.1355,0.293442
330.0000,-0.000921157,-8.98602,0.29579
329.5000,-0.00285368,-27.9483,0.296961
329.0000,-0.00465409,-45.7548,0.298093
328.5000,-0.0062972,-62.5089,0.300984
328.0000,-0.00780387,-77.8685,0.302553
327.5000,-0.00908696,-91.3074,0.304675
327.0000,-0.010293,-104.113,0.306699
326.5000,-0.0113989,-115.699,0.307763
326.0000,-0.012361,-126.15,0.309444
325.5000,-0.0132125,-135.846,0.311754
325.0000,-0.0139139,-144.005,0.313818
324.5000,-0.0144866,-150.905,0.315855
324.0000,-0.015007,-157.052,0.317321
323.5000,-0.0154765,-162.098,0.31758
323.0000,-0.0158546,-166.763,0.31893
322.5000,-0.0161454,-170.595,0.320382
322.0000,-0.0164175,-173.997,0.321353
321.5000,-0.0166497,-176.989,0.322321
321.0000,-0.0169622,-180.196,0.322115
320.5000,-0.0173378,-183.307,0.320578
320.0000,-0.0176873,-186.421,0.319581
319.5000,-0.018011,-189.923,0.319735
319.0000,-0.0183536,-193.457,0.319604
318.5000,-0.018662,-197.372,0.320682
318.0000,-0.0190537,-201.447,0.320576
317.5000,-0.0195272,-205.47,0.31905
317.0000,-0.0199081,-209.621,0.319266
316.5000,-0.0203809,-213.666,0.317878
316.0000,-0.0208468,-217.79,0.316774
315.5000,-0.0212089,-221.294,0.316374
315.0000,-0.0216135,-224.862,0.315456
314.5000,-0.0219416,-227.879,0.31491
314.0000,-0.0222561,-230.56,0.314112
313.5000,-0.0226075,-233.187,0.312753
313.0000,-0.022853,-235.477,0.312432
312.5000,-0.0231381,-237.417,0.311125
312.0000,-0.0235209,-239.436,0.308663
311.5000,-0.0237659,-240.828,0.307257
311.0000,-0.0240032,-242.089,0.305812
310.5000,-0.0243152,-243.124,0.303179
310.0000,-0.0245681,-244.222,0.301413
309.5000,-0.02492,-245.148,0.298284
309.0000,-0.0252273,-245.753,0.295378
308.5000,-0.0254024,-246.337,0.294039
308.0000,-0.0257394,-247.111,0.291101
307.5000,-0.0261549,-247.691,0.287149
307.0000,-0.0265149,-248.095,0.283712
306.5000,-0.0269686,-248.508,0.279403
306.0000,-0.0273028,-249.104,0.276645
305.5000,-0.0275298,-249.549,0.274854
305.0000,-0.0278552,-250.17,0.27232
304.5000,-0.028247,-250.846,0.269267
304.0000,-0.0287677,-251.274,0.264845
303.5000,-0.0292499,-251.35,0.260557
303.0000,-0.0296575,-251.132,0.256754
302.5000,-0.030066,-250.604,0.252734
302.0000,-0.0303867,-250.009,0.249471
301.5000,-0.0308351,-249.469,0.245314
301.0000,-0.0312643,-249.235,0.241719
300.5000,-0.031754,-248.999,0.237765
300.0000,-0.0322817,-248.251,0.233176

##### Extended Information
[Comments]
Sample name,R6_C-PFBT_S-F8BT_50_50_50mms_160C_20CB_0_180
Comment
User
Division
Company,University of Illinois

[Detailed Information]
Creation date,5/21/2026 4:25 PM

Data array type,Linear data array * 3
Horizontal axis,Wavelength [nm]
Vertical axis(1),G Value
Vertical axis(2),CD [mdeg]
Vertical axis(3),Abs
Start,700 nm
End,300 nm
Data interval,0.5 nm
Data points,801     

[Measurement Information]
Instrument name,J-1500
Model name,J-1500
Serial No.,D070261638

Detector,PM-539
Detector S/N,D070261638
  Lock-in amp.,X mode
  HT volt,Auto

Accessory,RSC-502
Accessory S/N,D070261638

Measurement date,5/21/2026 4:24 PM

Photometric mode,CD, LD, Abs
Measure range,700 - 300 nm
Data pitch,0.5 nm
CD scale,10000 mdeg/1.0 dOD
FL scale,10000 mdeg/1.0 dOD
D.I.T.,0.25 sec
Bandwidth,5.00 nm
Start mode,Immediately
Scanning mode,Continuous
Scanning speed,500 nm/min
Baseline correction,Baseline
Shutter control,Auto
No. of cycle,1/1
N2 Flowmeter,Manual


